-40.722076124567536
-25.285121107266505
-25.62200692041528
-35.55238754325264
-44.26519031141872
-38.01896193771626
-33.02505190311417
-22.15252595155707
-4.9137716262975575
10.34685121107268
19.209688581314875
24.245397923875412
20.679584775086475
8.05882352941174
-4.442629757785491
-16.335501730103836
0.23875432525947318
27.089134948096824
47.822283737024144
49.82698961937707
34.42366782006913
-7.25591695501735
-53.992525951557106
-97.56484429065745
-133.38131487889274
-144.2977162629758
-134.55820069204157
-108.2617301038063
-68.4148096885814
-25.132179930795917
-20.983806228373748
-33.52788927335642
-56.1518339100346
-80.80498269896191
-98.80567474048439
-90.21522491349477
-71.49771626297573
-47.513217993079515
-23.03598615916949
-5.263529411764658
-1.143529411764662
-27.200830449826945
-62.947958477508635
-89.92871972318336
-100.66629757785462
-92.39709342560548
-52.72027681660893
0.8088581314879673
56.02269896193779
115.125813148789
165.4214532871973
200.96885813148793
217.61314878892736
213.03986159169554
183.20262975778547
156.11875432525952
116.27709342560554
69.21411764705883
30.888166089965402
11.806920415224932
6.4004152249135045
26.41688581314879
65.2308650519031
96.17674740484426
110.3829757785467
105.38103806228374
98.35086505190311
73.74325259515572
41.6101038062284
8.157785467128068
-13.435294117647015
-29.54394463667815
-22.525121107266404
-7.230311418685116
15.632941176470558
8.518615916954957
-30.130380622837453
-93.76235294117657
-149.57107266435997
-210.32193771626308
-236.9519723183392
-212.4368166089966
-137.50186851211078
-48.392802768166106
38.631695501730114
102.01979238754328
124.09314878892738
105.23294117647063
56.99266435986162
22.43432525951559
3.2859515570934357
-1.7890657439446307
-1.3564013840830298
19.247197231833926
22.46380622837372
2.692318339100368
-39.43211072664357
-69.63653979238752
-87.91737024221452
-79.69591695501728
-46.723875432525936
3.9647058823529475
20.90643598615918
8.453564013840845
-12.216055363321793
-28.400138408304503
-46.34435986159171
-43.318754325259555
-20.197647058823588
6.273217993079529
34.26698961937712
68.40650519031138
106.22269896193771
127.43474048442906
130.90089965397925
122.28235294117648
121.36761245674742
105.32332179930799
80.39709342560556
53.225467128027695
24.293010380622842
-15.341176470588243
-38.81356401384085
-55.151972318339105
-58.586574394463675
-69.59017301038061
-90.4166089965398
-126.42629757785467
-152.3918339100346
-195.64581314878893
-229.35211072664362
-232.96276816608992
-188.90339100346017
-119.30712802768161
-1.9662283737023813
168.14117647058825
385.5013148788927
634.7998615916955
834.387266435986
957.4323875432525
957.8889965397924
805.6135640138407
501.8052595155709
224.6806920415225
-8.979792387543274
-173.24719723183392
-258.3622145328719
-254.91972318339094
-242.79474048442898
-221.67792387543244
-200.94242214532866
-178.67723183391
-169.65065743944638
-174.2494117647059
-176.53301038062287
-162.02643598615919
-144.9604152249135
-124.4507958477509
-97.11750865051906
-74.92041522491354
-60.5309342560554
-42.18256055363325
-15.815363321799335
-1.7395155709342773
0.9144636678200598
-5.8654671280276975
-5.3846366782007
-22.61384083044985
-48.16775086505193
-80.31017301038067
-106.73522491349486
-135.81550173010385
-138.53494809688584
-130.92650519031145
-106.68982698961938
-100.04608996539791
-112.95820069204149
-149.7728719723183
-175.04678200692038
-208.71944636678194
-219.48069204152245
-192.2192387543252
-121.92927335640135
-52.03446366782007
1.8226989619377107
29.544498269896184
20.951557093425585
-21.244567474048466
-71.49868512110729
-83.4006920415225
-64.86768166089966
-25.795155709342566
19.961937716262973
70.49910034602075
83.27003460207611
53.559307958477504
-16.38449826989619
-91.32096885813148
-155.0316955017301
-182.03543252595153
-167.37051903114184
-112.23626297577853
-64.21494809688576
-33.68193771626292
-14.056608996539742
1.906020761245708
1.135916955017312
-0.6867820069204208
3.1211072664359696
8.02878892733563
16.478200692041533
41.16858131487892
84.09024221453289
122.60844290657442
149.70186851211076
160.41619377162633
165.15889273356404
140.15114186851216
109.23197231833915
81.0834602076125
65.8599307958478
69.26394463667825
102.60775086505195
137.53840830449832
164.02463667820072
173.96041522491356
156.1879584775087
139.41674740484433
123.11626297577857
99.1534948096886
63.06948096885814
27.906989619377157
-19.12373702422146
-63.31211072664358
-96.70602076124565
-114.96692041522488
-120.0041522491349
-114.4510726643598
-96.30325259515567
-67.1007612456747
-40.88871972318338
-48.566505190311425
-67.45273356401387
-94.48484429065749
-127.93397923875439
-148.2350173010381
-137.17522491349487
-112.28678200692048
-79.40692041522497
-40.96179930795853
-20.359031141868563
-22.710726643598665
-61.57564013840836
-111.77314878892737
-149.7723183391004
-150.25937716262982
-122.63944636678207
-62.65619377162635
4.2391695501729565
57.574532871972266
83.02782006920411
86.07391003460205
72.30394463667821
46.85148788927339
17.073079584775144
2.3348096885813834
28.47100346020767
62.961384083045026
97.66062283737028
126.27169550173012
132.20346020761247
102.86269896193771
69.36705882352939
40.29439446366778
19.833771626297512
19.363737024221386
39.87017301038055
86.22394463667814
134.72290657439441
167.87640138408304
171.78006920415223
147.7521107266436
93.19335640138407
27.332733564013814
-38.536885813148835
-94.81868512110734
-128.17564013840837
-141.96650519031147
-136.9480968858132
-112.90408304498274
-82.8247750865052
-83.22782006920417
-93.03847750865052
-106.86186851211073
-128.06602076124565
-149.80276816608992
-158.0024913494809
-156.04442906574383
-145.72166089965387
-120.72290657439439
-88.66297577854667
-52.81647058823527
-49.896055363321786
-64.88525951557092
-90.84525951557092
-114.46380622837371
-136.92041522491348
-134.6561937716263
-117.52470588235296
-77.50823529411767
22.457439446366784
209.31958477508653
465.51474048442907
762.8752941176471
1052.386435986159
1235.5193079584774
1257.4249134948097
1111.7211072664359
826.2474740484428
469.2690657439446
141.53314878892732
-105.30975778546713
-247.81162629757782
-296.1493425605536
-273.33826989619376
-246.157508650519
-225.66463667820068
-209.9612456747405
-188.69411764705882
-189.76705882352942
-177.84138408304497
-151.5512802768166
-113.80581314878893
-96.40041522491352
-87.32553633217995
-92.14297577854673
-105.63612456747406
-124.86463667820067
-111.45743944636676
-76.54435986159166
-47.888442906574355
-43.251072664359825
-54.63778546712799
-92.0191003460207
-144.7785467128027
-185.41204152249128
-206.24110726643593
-207.61134948096878
-194.50754325259513
-160.3134948096886
-122.94020761245676
-95.00567474048447
-107.22131487889276
-137.09121107266438
-174.10297577854672
-196.43183391003458
-196.29522491349476
-155.01162629757783
-95.1342560553633
-25.75667820069201
16.19460207612459
43.25550173010382
50.86366782006924
44.116401384083076
14.546297577854707
15.110865051903147
26.023944636678237
34.17564013840834
25.730795847750915
18.349204152249175
-0.6017993079584386
-26.608858131487864
-47.4955017301038
-56.48955017301038
-55.24179930795848
-68.68027681660901
-78.921384083045
-76.61923875432527
-57.60456747404845
-46.128442906574406
-22.196401384083064
6.732871972318319
39.860899653979196
53.650519031141826
58.694117647058796
54.86726643598613
49.02339100346018
41.06989619377162
66.25647058823529
110.21411764705881
139.6481660899654
135.0563321799308
111.03889273356398
60.686505190311415
-4.765121107266426
-54.20761245674737
-75.21799307958474
-81.7007612456747
-82.61564013840828
-67.88553633217991
-46.93923875432525
-30.598615916955016
-37.7843598615917
-41.68193771626299
-36.38878892733566
-20.689411764705916
-4.892733564013874
22.52332179930793
34.4553633217993
30.275709342560553
0.3159861591695602
-21.826297577854668
-31.724429065743955
-20.430726643598646
-6.388788927335694
35.694256055363255
78.29190311418678
98.4326643598615
78.3211072664359
37.956816608996476
-11.884844290657492
-63.26532871972322
-94.31072664359863
-95.17051903114185
-63.779377162629736
-46.79460207612455
-36.64470588235293
-36.10117647058824
-40.67889273356404
-73.74020761245677
-95.44539792387545
-99.8957785467128
-72.33287197231832
-38.13730103806226
5.435986159169576
42.54782006920417
71.25107266435987
75.19778546712803
89.58062283737024
106.23861591695501
104.35750865051905
71.02103806228374
31.78920415224914
-15.264359861591696
-56.85439446366782
-73.75432525951558
-64.2233910034602
-49.49577854671277
-42.92069204152244
-37.87916955017296
-39.866574394463626
-50.42809688581312
-80.39958477508648
-94.92871972318338
-99.83377162629758
-89.81411764705882
-62.45896193771627
-15.800553633218012
14.936332179930758
34.670311418685074
39.71681660899649
23.847474048442866
-4.995986159169571
-48.75003460207612
-94.34352941176468
-123.40415224913491
-122.87986159169546
-100.47903114186849
-55.07294117647056
-3.7703806228373358
40.388512110726694
72.75404844290662
85.92941176470592
86.0579930795848
76.58089965397926
59.75515570934256
43.402629757785455
57.43321799307959
75.81688581314879
93.04193771626296
106.64539792387544
106.93591695501728
83.20359861591692
49.52429065743942
10.03529411764705
-29.4638062283737
-51.73536332179928
-46.366643598615866
21.53301038062289
138.35820069204155
303.3572318339101
505.38560553633226
711.8182698961939
868.8873356401384
956.9972318339102
925.8638062283737
744.9678892733565
481.55321799307956
192.09868512110728
-65.73301038062286
-233.1406228373703
-277.4290657439447
-276.77287197231834
-239.58311418685125
-192.17051903114188
-156.06159169550173
-144.91820069204152
-136.5510034602076
-137.09550173010376
-144.92193771626296
-156.5053287197232
-170.76359861591695
-181.68152249134948
-212.30076124567478
-241.68332179930795
-250.80692041522494
-231.18145328719726
-196.3043598615917
-139.9681660899654
-88.65508650519031
-53.46089965397923
-58.04166089965397
-69.43418685121108
-81.80249134948097
-86.87916955017302
-94.93757785467129
-61.03833910034602
-19.396124567474043
9.196124567474056
9.434463667820093
-5.909757785467103
-47.15280276816606
-94.72346020761243
-128.1446366782007
-140.38145328719725
-123.64802768166092
-107.10851211072665
-96.62214532871972
-94.24027681660898
-91.43169550173008
-118.48415224913492
-141.1826989619377
-145.05633217993076
-119.37660899653979
-94.0710034602076
-56.10698961937716
-23.014117647058825
-1.5709342560553827
-2.051764705882378
17.15183391003457
41.13840830449824
52.397508650519015
43.01564013840831
32.92747404844293
7.828512110726683
-19.077093425605494
-33.61951557093421
-37.47820069204148
-38.170657439446344
-38.200830449826974
-30.469204152249137
-14.746712802768176
6.7530795847750795
4.786297577854663
3.0561937716262944
10.11557093425607
28.017024221453305
47.09397923875434
76.48802768166094
88.00927335640142
75.27750865051905
30.198615916955042
-9.53494809688579
-30.119723183391
-23.71515570934258
-4.058131487889306
48.86186851211068
101.87820069204147
131.89162629757783
127.90477508650517
112.14352941176472
93.42103806228376
76.98505190311423
72.59183391003464
77.72581314878894
88.92387543252595
65.82754325259513
25.488719723183372
-16.61522491349482
-46.89951557093426
-86.66989619377162
-99.36373702422145
-90.99889273356403
-63.22782006920418
-35.93730103806233
-4.666159169550231
12.677785467127956
22.36595155709335
22.749757785467047
38.44318339100338
61.71391003460201
77.17716262975775
64.93217993079583
40.88359861591695
5.826020761245689
-33.21245674740483
-63.251211072664354
-74.76982698961939
-75.64110726643602
-79.36166089965403
-73.81785467128033
-59.507404844290704
-45.17508650519034
-64.15474048442907
-85.1263667820069
-102.03501730103804
-104.67667820069201
-91.83363321799305
-40.66768166089965
16.61494809688579
73.5901730103806
88.50519031141864
81.9411764705882
53.35972318339098
16.068373702422157
-39.53577854671277
-46.129550173010315
-31.688581314878814
-20.490380622837293
-34.01577854671273
-54.43169550173006
-87.8615916955017
-119.97217993079585
-125.3525259515571
-93.29051903114187
-29.933425605536314
14.541868512110739
41.614671280276816
44.487335640138404
24.486920415224898
-32.79930795847752
-84.87916955017302
-121.39709342560552
-123.2881660899654
-103.28027681660899
-60.826297577854675
-16.070449826989634
23.901453287197217
43.06020761245673
61.5926643598616
71.53176470588237
62.021038062283765
27.986989619377187
-7.957785467128008
-40.00927335640139
-56.03737024221455
-48.244152249134956
-23.979100346020765
-1.5316262975778503
-0.6733564013840737
-18.583252595155713
-55.22671280276819
-105.13134948096891
-182.02283737024226
-237.39294117647063
-262.6376470588235
-247.65882352941176
-190.16027681660898
-84.53356401384079
73.10657439446372
283.2869204152249
533.6573010380623
796.3032525951558
1048.7784083044983
1168.63169550173
1137.1410380622838
962.4321107266436
693.0757093425606
372.9518339100346
97.7299653979239
-102.10712802768163
-204.74159169550168
-226.00816608996539
-204.28775086505192
-154.99460207612458
-99.48152249134951
-64.07155709342564
-53.524152249134985
-28.09993079584778
-12.466989619377182
-8.97051903114188
-10.082768166089966
-14.316816608996533
-28.905051903114167
-37.77716262975777
-40.598892733564
-42.571072664359846
-38.98851211072663
-36.38505190311418
-19.06754325259515
-1.207889273356388
5.389342560553651
-7.512664359861579
-33.29051903114185
-73.5590311418685
-111.77439446366782
-137.28
-151.94768166089966
-147.0812456747405
-136.50048442906575
-123.36816608996541
-110.59820069204156
-98.29564013840837
-127.69979238754334
-158.81079584775094
-181.55543252595163
-192.92830449826994
-194.1998615916955
-167.44
-139.41121107266434
-116.16622837370241
-95.90588235294118
-80.41771626297576
-70.80498269896191
-90.15999999999997
-119.48456747404842
-139.78297577854667
-139.72318339100343
-125.0909342560553
-83.1000692041522
-36.698269896193715
-3.4186851211072224
-1.172595155709308
0.47460207612457783
6.989757785467124
20.785190311418646
31.396262975778484
63.90034602076118
83.57910034602068
72.65107266435977
27.71930795847744
-26.65647058823535
-79.57384083044988
-112.32581314878897
-110.99709342560557
-79.66311418685122
-26.03681660899652
6.853702422145341
15.009273356401389
-2.9799307958477557
-36.4582698961938
-101.17536332179935
-156.6253287197232
-186.04000000000002
-168.68581314878892
-128.48346020761247
-63.8073356401384
1.843598615916969
55.183806228373726
79.68775086505194
110.41771626297582
137.93467128027686
145.61494809688585
125.86823529411768
95.27321799307961
43.04733564013843
-18.45093425605535
-64.12276816608997
-87.45979238754327
-96.34865051903118
-93.13826989619382
-68.74712802768171
-35.09384083044987
-6.232249134948129
-9.186435986159202
-27.48816608996544
-57.3002076124568
-89.66574394463673
-120.56013840830455
-130.83003460207618
-134.6496885813149
-127.94546712802767
-127.44110726643594
-107.10103806228366
-69.68525951557083
-20.37467128027672
12.430726643598708
59.14380622837378
90.12996539792394
89.74560553633222
51.90366782006921
4.351003460207595
-37.7302422145329
-63.86020761245678
-61.094532871972355
-29.224498269896213
33.30200692041523
64.79875432525954
70.95377162629762
59.660622837370305
44.58311418685128
0.8683737024222131
-21.489550173010308
-17.97301038062277
16.331903114186908
54.04387543252601
96.05176470588242
119.6048442906575
126.5480968858132
112.28359861591703
110.43377162629763
119.57453287197237
130.9850519031142
125.55307958477508
114.31570934256054
90.5579238754325
58.76539792387541
25.81342560553631
1.676955017301033
-13.38878892733564
-24.23695501730105
-19.380622837370264
2.529688581314852
31.219238754325225
30.03280276816605
20.545190311418644
8.859377162629723
1.9832525951556925
-1.6231141868512189
18.492595155709356
35.720830449827034
47.39958477508655
34.55100346020765
24.64553633217997
18.451903114186877
22.117231833910047
18.2322491349481
37.82602076124569
52.840692041522495
47.165397923875425
11.654394463667794
-29.392664359861623
-62.160415224913535
-77.47252595155716
-64.25439446366788
-26.108788927335706
24.388096885813066
28.348235294117547
-9.127612456747508
-77.20595155709353
-154.73162629757792
-243.16996539792393
-288.51847750865056
-279.51460207612456
-209.7716262975779
-88.22173010380627
88.96179930795843
306.53522491349474
556.1728719723183
824.8258823529411
1088.680553633218
1292.7456055363323
1362.6574394463669
1270.13107266436
1031.0729411764707
687.447750865052
307.8231141868512
-9.301038062283714
-228.77273356401383
-352.98975778546713
-401.97951557093427
-388.40179930795847
-348.2253287197232
-302.15667820069206
-279.9460207612457
-257.5483737024222
-246.7054671280277
-248.6840138408305
-259.94145328719725
-272.52138408304506
-296.73730103806236
-316.1714878892734
-322.80041522491354
-317.1979238754326
-291.2465051903114
-276.79681660899644
-274.4721107266435
-272.8925951557093
-264.2261591695501
-262.68705882352936
-251.0341868512111
-230.4566089965398
-211.93522491349486
-193.76858131487893
-164.84290657439448
-124.72442906574395
-91.43778546712802
-74.7489273356401
-75.63916955017297
-75.07169550173006
-90.8589619377162
-107.1213840830449
-107.72816608996531
-93.75100346020753
-73.76041522491342
-44.19986159169541
-18.942006920415146
-14.053010380622766
-25.37647058823523
-53.92913494809682
-62.26588235294109
-55.344775086505095
-34.90823529411753
-11.832664359861468
17.139515570934357
29.481937716263047
31.50076124567476
19.59944636678199
-6.824498269896253
-35.83446366782014
-61.57882352941182
-75.19820069204155
-64.85259515570937
-27.864083044982703
-6.146989619377159
19.23432525951558
44.85785467128029
61.04705882352944
60.76470588235297
58.90366782006923
42.61204152249135
18.675294117647034
2.6881660899653665
2.694809688581273
22.01439446366777
28.96968858131484
30.07598615916954
32.80664359861592
36.82006920415226
26.87806228373706
25.137716262975808
28.19501730103807
27.756539792387535
32.94380622837368
52.30283737024217
84.31335640138403
117.26795847750861
141.65010380622834
151.01425605536332
177.0098269896194
192.89494809688586
195.44788927335645
191.30961937716265
184.2343252595156
161.58006920415227
143.0483044982699
133.73716262975782
127.07183391003464
119.83349480968863
107.28761245674745
111.54131487889276
111.89730103806232
98.17716262975782
67.45951557093427
34.979377162629746
-10.86145328719726
-49.146989619377216
-74.31086505190316
-67.94712802768171
-74.38394463667825
-91.71612456747408
-115.48041522491351
-123.38948096885815
-152.28830449826995
-167.78325259515574
-163.1946020761246
-133.36262975778553
-106.13910034602081
-83.77619377162634
-71.48249134948102
-71.68955017301043
-86.98740484429072
-115.16429065743951
-112.67778546712809
-89.60761245674743
-62.232941176470604
-40.852733564013846
0.06643598615919247
19.01259515570937
11.339100346020757
-20.547404844290668
-47.54865051903116
-79.9003460207613
-97.33397923875438
-97.51072664359864
-81.26546712802771
-90.86394463667821
-113.59335640138411
-129.36747404844294
-123.63570934256059
-110.23031141868515
-74.40401384083046
-29.026435986159164
1.8910726643598885
12.748096885813187
18.38062283737029
22.695224913494847
16.96027681660903
8.73051903114189
10.42823529411766
45.374948096885824
87.15031141868512
127.28664359861591
158.44262975778548
171.12249134948098
142.5696885813149
100.50754325259517
50.78865051903115
17.141314878892732
-13.04761245674742
-29.913633217993095
-38.00484429065745
-17.053148788927338
-9.755155709342556
-6.14740484429065
-3.680276816608996
9.637508650519027
7.864498269896179
-8.404982698961964
-29.927612456747426
-49.781453287197245
-68.09065743944637
-80.41217993079586
-48.13826989619377
6.031972318339099
52.90698961937716
73.16484429065743
81.63003460207611
45.58602076124565
-27.14214532871975
-120.11003460207614
-187.8182698961938
-220.62975778546715
-192.7204152249135
-101.52235294117646
48.37605536332184
209.58519031141873
385.5364705882354
584.847197231834
804.600830449827
972.5761937716263
1068.4478892733564
1056.6157785467126
907.150588235294
633.275294117647
357.6859515570934
123.33121107266436
-53.60539792387541
-157.52221453287194
-190.51999999999992
-188.08595155709335
-179.50339100346014
-170.33660899653972
-164.7256747404844
-152.6881660899654
-151.63100346020764
-142.88608996539796
-131.8445674740485
-110.2276816608997
-113.06782006920419
-130.82671280276818
-163.92373702422145
-187.5410380622837
-217.4045674740484
-227.3201384083045
-214.1201384083045
-170.22048442906575
-123.63930795847753
-96.04041522491352
-91.1371626297578
-106.56664359861593
-140.10173010380623
-186.11903114186856
-192.0853979238755
-168.20595155709347
-135.14685121107271
-108.90242214532873
-70.86491349480968
-60.955709342560525
-81.2146712802768
-121.7587543252595
-156.30477508650517
-187.56885813148787
-198.33799307958478
-188.29688581314878
-168.14657439446364
-170.73494809688583
-190.90615916955016
-209.91930795847753
-208.57840830449828
-190.9262283737024
-147.9092041522491
-88.38463667820065
-33.87197231833905
3.6062283737024727
27.908927335640197
41.30076124567479
36.250934256055416
18.093425605536403
-5.205121107266349
-2.5190311418684104
-2.531903114186737
3.6685121107267507
14.784359861591781
26.227681660899712
23.450657439446406
35.70352941176472
48.52678200692041
58.30519031141866
68.47543252595153
78.00124567474045
98.55432525951554
124.64442906574394
134.49356401384082
119.57356401384081
94.66574394463666
52.51432525951556
4.644290657439422
-23.990449826989632
-35.346435986159165
-42.787681660899615
-48.65702422145322
-45.48553633217985
-35.9298269896193
-20.22463667820062
-26.058546712802716
-29.786851211072644
-34.200968858131496
-41.34173010380625
-46.501314878892764
-34.02961937716267
-22.805536332179962
-9.67695501730105
8.964429065743948
25.572456747404853
42.666435986159186
35.656608996539816
16.713356401384118
-3.8986851211072335
-14.410242214532833
-28.090380622837323
-25.113771626297535
-18.937993079584743
-11.559307958477476
2.3320415224913775
29.807197231833925
64.02740484429066
97.7831141868512
120.68788927335638
124.36692041522488
136.54574394463663
133.0440138408304
118.1079584775086
97.29536332179926
75.97439446366776
43.36387543252589
24.9469896193771
19.011072664359798
19.87321799307953
23.082906574394418
25.502006920415205
43.159031141868496
57.68359861591695
55.49453287197233
36.122214532871986
10.360000000000015
-29.22062283737021
-64.196678200692
-84.88761245674736
-101.07266435986158
-111.74076124567475
-120.18519031141872
-121.85688581314885
-108.7665051903115
-74.84166089965404
-65.62698961937721
-62.23778546712806
-62.73633217993082
-74.34906574394465
-97.06768166089968
-101.44069204152254
-98.9719031141869
-95.53273356401391
-86.63377162629766
-75.61965397923882
-70.51280276816614
-94.55653979238755
-125.82186851211068
-147.89591695501724
-149.9785467128027
-137.61439446366776
-100.00830449826984
-59.27653979238752
-26.677785467128007
-27.577024221453268
-28.25287197231831
-24.253287197231806
-14.805536332179908
-12.170934256055366
26.789896193771607
70.25660899653975
96.38934256055359
94.32664359861587
76.70200692041519
38.93494809688578
-7.984775086505229
-43.94228373702427
-62.233217993079656
-52.723737024221535
-51.35100346020768
-50.67820069204156
-50.50519031141869
-43.730242214532836
-63.43086505190306
-76.69965397923869
-81.92678200692036
-65.13896193771622
-52.593217993079556
-28.319446366782
-6.461453287197247
13.832525951557077
16.652179930795835
41.05494809688581
70.35197231833912
82.43833910034606
59.56678200692046
18.351695501730156
-53.268788927335585
-138.73633217993077
-210.85743944636675
-255.19446366782003
-242.57660899653973
-164.34768166089958
-2.9893425605535753
239.92332179930798
548.444152249135
829.3090657439446
1066.398062283737
1208.638615916955
1226.9670588235294
1100.5721799307958
881.9021453287198
589.4889965397923
301.0150865051903
40.1760553633218
-130.48262975778545
-213.4063667820069
-223.2923183391003
-212.54366782006915
-159.82034602076115
-104.22560553633207
-67.85079584775076
-63.92525951557085
-74.17799307958474
-101.15543252595155
-141.51086505190315
-173.70602076124572
-190.76705882352945
-180.2878892733564
-174.58615916955017
-160.59432525951556
-139.72359861591696
-104.66200692041521
-98.41342560553633
-95.88512110726644
-100.73757785467129
-97.62712802768168
-105.72802768166093
-107.88692041522498
-113.68498269896202
-114.34948096885823
-120.30892733564023
-100.99792387543263
-64.83515570934267
-32.094948096885894
-30.021868512110792
-48.724982698961995
-92.93356401384088
-151.75155709342565
-204.65951557093427
-236.11903114186853
-239.93467128027683
-228.73411764705884
-199.17301038062283
-158.3737024221453
-118.42795847750862
-122.0694809688581
-137.08235294117645
-146.34657439446366
-138.46325259515572
-115.6423529411765
-60.299653979238805
-8.469342560553674
25.31238754325257
21.08664359861591
5.707543252595166
-10.98865051903112
-13.946712802768158
-11.096470588235286
28.345743944636666
82.63363321799305
125.33826989619372
135.53121107266432
122.72747404844286
93.92262975778542
52.85840830449824
25.24346020761245
23.00221453287198
52.68166089965401
68.68913494809692
78.84719723183393
76.98491349480972
65.12041522491351
19.366782006920435
-24.48262975778545
-61.10574394463667
-72.15723183391003
-73.7526643598616
-55.490795847750874
-30.340346020761256
-0.901176470588239
18.838200692041514
58.94089965397923
107.29134948096882
145.31764705882352
159.66685121107264
162.1184775086505
143.30532871972318
111.51238754325259
83.87377162629758
62.432387543252595
43.70339100346022
20.894809688581322
4.4395847750865105
-7.804152249134935
-15.337439446366755
-43.81647058823527
-57.563737024221425
-60.71570934256052
-55.205397923875395
-43.035017301038025
-14.822560553633172
-0.2956401384082466
4.687197231833968
6.667543252595204
4.885813148788968
2.5584775086505553
-20.48083044982696
-57.109896193771604
-90.70435986159166
-105.63515570934253
-117.33979238754326
-109.15460207612459
-84.85799307958482
-59.69993079584782
-40.14837370242223
-10.094809688581401
22.708373702422076
42.69674740484423
45.37910034602073
33.34989619377161
27.29079584775088
17.567474048442914
14.763044982698977
25.288166089965415
45.157508650519034
62.09577854671279
83.90256055363321
96.04955017301036
88.2056747404844
63.544636678200675
24.74034602076123
2.9252595155709264
2.7851903114186833
16.84235294117647
37.69204152249135
62.967058823529406
68.0149480968858
52.053425605536326
23.38878892733564
-21.68512110726644
-65.98131487889273
-100.28387543252595
-110.65937716262974
-94.22532871972317
-49.547266435986124
-30.479584775086458
-17.710449826989567
-16.835294117647003
-28.219930795847695
-50.075709342560494
-50.311972318339045
-44.06505190311414
-27.63861591695497
2.2051211072664736
42.238200692041545
81.25411764705883
86.58671280276816
68.00844290657437
37.302560553633185
6.677231833909998
-22.30809688581319
-23.538546712802802
-7.986020761245709
17.919169550172988
29.65785467128025
50.08096885813147
72.01840830449825
87.51211072664361
80.00608996539793
86.62117647058827
81.74975778546715
57.187958477508666
17.230311418685126
-13.394186851211085
-31.761245674740508
-30.0660207612457
-8.120692041522506
17.39169550173011
35.25231833910037
6.233771626297626
-55.9712110726643
-127.47986159169542
-176.56470588235288
-208.53176470588232
-181.9255363321799
-92.93619377162626
59.583944636678225
268.6754325259516
518.1573702422145
758.2131487889274
954.9782698961938
1071.8312802768166
1065.6974394463668
934.9035294117648
697.7946020761246
388.01674740484435
78.2496885813149
-175.76678200692044
-344.2680968858132
-410.7851903114188
-391.21674740484434
-339.5080968858132
-278.12083044982705
-215.59570934256058
-166.51072664359864
-142.52013840830452
-157.75889273356404
-190.50034602076127
-225.27640138408304
-250.08858131487892
-260.81965397923875
-236.68401384083046
-198.69314878892737
-160.99280276816611
-149.38173010380626
-137.52927335640143
-129.9950173010381
-127.16622837370244
-141.8476124567474
-132.71529411764703
-122.25301038062284
-121.92733564013841
-138.34685121107265
-150.50906574394463
-154.69785467128028
-151.05979238754327
-134.5537716262976
-108.91847750865054
-76.50865051903116
-85.43197231833912
-117.82643598615921
-154.9044982698962
-177.31667820069205
-205.04359861591692
-204.2304498269896
-184.61314878892728
-148.076124567474
-125.02920415224912
-109.54339100346021
-110.27833910034603
-115.64885813148791
-126.23806228373705
-101.53605536332182
-48.22366782006922
11.619792387543253
50.28595155709342
75.70698961937717
71.4323875432526
42.65480968858134
8.115432525951586
-16.272110726643554
-34.687197231833856
-46.22352941176466
-40.20387543252591
-19.619930795847715
4.404290657439466
0.5716262975778654
-14.215224913494811
-28.247058823529414
-30.639169550173012
-26.77204152249135
2.9719031141868584
38.39626297577857
70.41896193771629
72.40858131487892
77.05937716262977
83.90768166089967
90.98449826989619
78.88401384083046
84.90076124567476
83.92193771626299
63.51667820069207
22.92083044982701
-9.011764705882333
-24.625743944636675
-22.792802768166098
3.9599999999999853
50.854671280276804
106.9905882352941
124.5998615916955
115.02352941176471
87.86408304498272
53.810380622837386
-0.8026297577854551
-36.927612456747404
-50.48664359861592
-33.28484429065746
-3.5306574394463994
38.667266435986114
73.0997923875432
97.99861591695495
105.20124567474042
121.60650519031137
145.66422145328715
163.32387543252594
159.57868512110727
145.36484429065746
114.79972318339102
71.72332179930797
32.37979238754327
-2.4073356401384016
-33.84498269896194
-69.56595155709343
-97.28968858131489
-116.28249134948098
-117.28705882352945
-131.26934256055364
-123.75031141868514
-103.19252595155713
-77.37854671280279
-60.39598615916958
-45.2346020761246
-59.98269896193775
-93.40816608996543
-128.722491349481
-156.4975778546713
-168.14131487889276
-180.76470588235296
-186.63723183391002
-176.19280276816608
-142.45688581314877
-97.95238754325258
-36.49217993079585
22.798200692041522
60.295086505190305
73.21231833910034
64.4859515570934
42.74948096885811
12.485536332179906
-23.659100346020796
-60.38200692041526
-62.89854671280278
-55.977854671280284
-42.8395847750865
-18.972318339100333
9.703944636678221
27.58685121107269
46.48470588235297
62.74463667820072
63.082214532872
48.344083044982725
20.026851211072675
12.267404844290656
16.037370242214525
27.265882352941162
43.117508650519014
63.66422145328719
66.89231833910034
64.37301038062284
61.82256055363324
46.61577854671283
18.902837370242256
-20.254532871972273
-62.39183391003455
-95.90283737024215
-102.93993079584769
-108.84041522491343
-92.83529411764701
-60.942422145328656
-27.128027681660846
-12.316678200691987
-10.431280276816556
-30.165813148788885
-67.44982698961934
-108.0060899653979
-132.05702422145328
-128.11252595155707
-130.05079584775086
-126.8321107266436
-114.39598615916955
-98.14782006920414
-98.89674740484428
-101.3838062283737
-122.62712802768166
-162.56581314878892
-220.6556401384083
-246.70851211072664
-224.9738408304498
-144.46491349480968
-18.193079584775074
170.8502422145329
389.4160553633218
614.2902422145328
823.3979238754325
1013.3180622837369
1120.3849134948098
1119.9248442906573
1001.9885121107267
767.0588235294118
458.2837370242215
157.1937716262976
-95.20595155709341
-267.84927335640134
-338.95238754325254
-372.33826989619376
-381.64553633217986
-367.77730103806226
-327.918615916955
-293.28262975778546
-245.64166089965397
-210.49079584775092
-190.7306574394464
-195.18532871972323
-189.70602076124572
-176.35058823529417
-167.801937716263
-181.683598615917
-198.63584775086508
-225.57245674740483
-256.837508650519
-273.00498269896195
-267.52359861591697
-257.09411764705885
-248.0395847750865
-228.18961937716261
-200.6243598615917
-174.83750865051906
-174.01176470588237
-178.18269896193775
-184.42449826989622
-189.79889273356403
-190.40775086505192
-171.3349480968858
-152.83321799307956
-131.93757785467125
-123.00885813148787
-104.31349480968856
-70.04941176470588
-18.887474048442918
19.656747404844264
73.06823529411761
116.85522491349477
127.66449826989617
94.01979238754323
47.73826989619378
7.614948096885828
-16.93605536332178
-7.410380622837366
40.15252595155708
121.5245674740484
170.60996539792384
193.29301038062277
195.5641522491349
189.28899653979232
151.69674740484425
135.12027681660896
143.758062283737
184.3648442906574
233.97079584775082
292.8458131487889
332.9346712802768
350.60719723183394
338.8528719723184
329.48927335640144
328.06961937716267
330.7429757785468
325.959723183391
328.78615916955016
327.79307958477506
318.18352941176465
306.07972318339097
294.06809688581313
271.1454671280277
235.21536332179934
206.31460207612463
193.35377162629763
192.43114186851216
179.8501038062284
181.86131487889276
202.63930795847753
236.35640138408309
276.0916262975779
334.9677508650519
379.35474048442904
403.01951557093423
394.5307958477509
385.5730103806228
378.97301038062284
383.7319031141868
382.2820761245675
404.9854671280277
423.756678200692
421.4134256055363
387.2928719723183
345.40249134948095
304.23999999999995
269.4525951557093
254.35570934256052
257.6456747404844
271.1757785467128
246.97079584775088
191.36207612456747
107.64858131487888
9.58103806228372
-117.77508650519033
-235.87750865051902
-333.7360553633218
-397.4249134948097
-446.6621453287197
-473.2393079584775
-486.58062283737024
-487.2501038062284
-478.2894117647059
-430.4730795847751
-357.4701730103807
-289.8229757785467
-251.95017301038064
-246.96083044982703
-282.84346020761245
-348.3121107266436
-413.75640138408306
-465.75363321799307
-492.1433910034601
-497.94712802768163
-473.83930795847743
-434.0191003460207
-389.1338408304498
-383.3295501730104
-387.395017301038
-407.8322491349481
-432.17716262975785
-449.45785467128036
-434.9092041522492
-413.7360553633219
-379.44262975778554
-337.1184775086506
-301.000276816609
-281.4889965397924
-299.74394463667824
-344.6456747404844
-391.52249134948096
-414.2881660899654
-410.61785467128027
-363.6719723183391
-290.07058823529417
-215.0769550173011
-154.12000000000006
-111.60885813148793
-88.42532871972323
-83.04844290657442
-91.00207612456751
-100.05577854671283
-75.39266435986158
-47.41176470588234
-23.588096885813126
-3.8120415224913224
3.741038062283767
-16.140761245674714
-39.133010380622814
