-753.1489062500006
-795.5882031250005
-833.1973437500004
-849.8481250000004
-874.8420312500004
-897.4025781250001
-958.0675781250001
-999.8637500000001
-1006.51015625
-995.511015625
-997.3127343749999
-978.226328125
-970.1371093750001
-942.3885156250002
-901.5734375000001
-868.0863281250001
-818.1669531250002
-794.5117968750002
-751.4246875000002
-679.0460937500003
-609.3710937500003
-548.8718750000005
-464.2397656250005
-356.55601562500055
-263.70437500000054
-153.57023437500055
-32.896015625000544
81.25257812499952
226.6482812499996
369.9214062499998
513.168828125
622.22828125
739.6951562500003
867.4421875000004
1010.6982031250004
1122.3539843750007
1239.5096093750005
1325.8905468750008
1434.9872656250009
1535.1750000000009
1631.3571875000011
1708.1571093750015
1745.6407812500015
1778.6700781250015
1819.095078125001
1824.2964062500012
1804.0507031250008
1782.7221093750009
1783.0616406250012
1750.944921875001
1724.9882031250006
1685.3738281250003
1624.1684375000004
1582.2518750000002
1531.0820312500002
1474.752890625
1394.4065625
1327.7629687499998
1285.5303906249999
1260.5117187499995
1197.6465624999998
1144.4146093749994
1080.7170312499995
1054.2924999999996
1043.3134374999995
1008.9828906249995
981.1206249999992
924.1594531249992
881.4772656249993
839.7413281249992
781.5735156249993
701.1912499999993
642.5204687499993
596.1230468749994
507.7553906249994
403.5380468749995
309.3703906249996
235.85421874999957
176.35757812499966
98.41015624999969
-30.57046875000023
-152.36593750000017
-260.4410156250001
-358.0409374999999
-448.8267968749999
-524.9493749999997
-584.8771874999996
-633.7692187499995
-689.5435937499996
-742.9133593749996
-778.0219531249995
-800.4451562499994
-804.3851562499995
-816.0398437499995
-850.1028124999996
-869.3438281249996
-858.9142968749996
-821.3940624999998
-807.2748437499998
-787.6563281249998
-752.2681249999999
-730.38203125
-731.5947656250003
-737.2867187500003
-721.1285937500006
-686.2470312500008
-679.4808593750008
-682.5415625000009
-679.446796875001
-659.2687500000012
-668.4303125000014
-658.8931250000014
-678.3280468750014
-679.6224218750016
-670.6442968750015
-666.5092968750016
-665.0545312500017
-683.6832031250018
-676.5223437500018
-656.6546093750019
-657.148359375002
-693.7630468750019
-719.838046875002
-717.8434375000018
-754.522109375002
-790.5488281250017
-825.2325781250016
-836.0503125000015
-829.4239062500016
-841.2189843750014
-879.6354687500011
-908.1677343750013
-924.7821875000009
-930.6471875000009
-964.3571875000007
-981.8588281250005
-983.3521093750003
-968.7972656250004
-959.8571093750002
-948.7882031250001
-924.8900781249998
-888.740546875
-843.2335156249998
-815.0758593749998
-817.1169531249998
-811.6492187499997
-791.6947656249997
-763.3315624999997
-751.9853906249998
-750.6188281249998
-728.5641406249998
-717.7407812499998
-733.0547656249997
-756.5942968749999
-768.3922656249998
-760.6107812499997
-774.6576562499998
-800.0856249999998
-826.8067968749998
-834.9958593749999
-857.81875
-857.9684375000002
-873.8070312500001
-886.9713281250002
-897.0189843750001
-931.457265625
-962.221953125
-1000.305546875
-1020.3008593750001
-1030.7182812499998
-1062.1910156249999
-1116.351171875
-1167.6428906250003
-1204.6039062500001
-1253.4084375000002
-1294.9169531250002
-1347.8390625000002
-1392.9343750000005
-1419.2996875000003
-1464.0507031250004
-1523.4173437500003
-1566.7075781250003
-1574.4136718750005
-1568.1791406250006
-1577.2750781250006
-1571.1902343750007
-1540.4617187500005
-1474.1268750000006
-1420.6012500000006
-1345.7739062500004
-1257.9587500000005
-1165.6142187500002
-1041.3204687500001
-913.7530468749999
-795.1047656249998
-667.5051562499998
-494.5932812499997
-297.5229687499997
-109.63609374999972
82.72906250000034
303.45671875000033
516.0540625000004
722.3429687500005
887.8122656250004
1059.9598437500003
1255.2596093750003
1428.0752343750003
1587.8146093750001
1735.8072656250001
1881.236484375
2000.5310937500003
2141.5271875
2245.8499218749994
2321.5082031249995
2400.6621093749995
2453.99
2499.9342968749993
2486.128359375
2487.461484375
2496.6517187499994
2523.3946093749996
2500.5242968749994
2490.266171874999
2452.9063281249996
2424.0259374999996
2383.6339062499997
2349.033671875
2289.3829687499997
2210.9034375
2132.8089843750004
2075.665703125
1992.2610156250005
1895.7063281250005
1797.7457031250008
1734.8414843750006
1631.806718750001
1545.1946875000012
1440.3221093750012
1342.4674218750013
1242.3710937500014
1144.2901562500015
1051.6656250000015
937.3312500000013
831.9517187500015
753.8315625000016
690.0909375000015
612.7575781250014
534.9544531250015
444.5634375000015
362.22851562500136
293.85179687500136
227.43968750000124
162.60804687500104
76.19578125000092
4.692968750000837
-43.224062499999256
-77.19070312499935
-114.70374999999945
-135.26882812499957
-139.32195312499965
-151.61124999999976
-151.5680468749998
-147.65398437499982
-157.08507812499982
-134.91140624999997
-83.75281250000003
-25.744062500000087
1.8707812499998575
33.01726562499977
78.02351562499977
149.6922656249998
203.43210937499978
265.0465624999998
283.1920312499998
313.5046874999998
337.14304687499987
364.9048437499999
373.71249999999986
353.15179687499983
341.2839062499999
347.2592968749999
326.2584375
283.45507812500006
248.68367187500016
242.3585937500003
217.1899218750004
220.33414062500057
197.34945312500062
153.80367187500073
123.36617187500084
112.88132812500092
93.61164062500092
56.393515625001015
38.07304687500106
48.0190625000011
74.97976562500114
80.66781250000109
98.23234375000102
102.29367187500087
125.08656250000074
148.24648437500053
161.96515625000038
167.62882812500018
145.09460937499995
151.52039062499972
159.9242187499995
150.53695312499934
125.97726562499918
128.47523437499905
132.81890624999892
89.69609374999884
42.96718749999878
-11.116953125001272
-63.138593750001284
-102.71500000000123
-153.44515625000113
-231.35085937500102
-303.12070312500094
-370.21507812500073
-429.2140625000005
-511.3639062500004
-585.3546093750003
-635.9779687500003
-665.4752343750001
-713.00796875
-760.3857031250001
-783.1422656250002
-801.1112500000002
-792.6946875000001
-798.0324218750002
-817.6087500000001
-832.2675000000002
-827.5457031250003
-810.9354687500002
-818.9764062500002
-816.4132812500002
-790.4460156250003
-751.0380468750004
-738.1535156250004
-740.4878125000004
-736.0025000000004
-723.1996093750004
-738.6938281250004
-768.7639843750004
-800.9876562500004
-819.6473437500003
-859.4408593750005
-874.6381250000004
-919.0101562500004
-942.8830468750006
-955.2213281250005
-980.0326562500006
-1013.7639843750003
-1072.1010156250004
-1120.0209375000002
-1155.5906250000003
-1196.6260937499999
-1255.175
-1298.45734375
-1318.024140625
-1357.365859375
-1386.3889062499998
-1418.8879687499996
-1439.5124999999996
-1431.8171093749993
-1428.2415624999994
-1452.1727343749992
-1449.2002343749991
-1413.016171874999
-1350.442265624999
-1294.4938281249988
-1222.4414062499989
-1134.668515624999
-1033.416562499999
-947.0905468749988
-837.4037499999989
-713.288203124999
-574.2082031249989
-422.204609374999
-263.74992187499896
-130.906093749999
5.428984375000956
156.19390625000085
319.2346093750007
439.9783593750006
542.7288281250006
639.8586718750005
730.0262500000007
797.4082812500006
852.9119531250005
915.2711718750007
988.0233593750004
1026.1932031250003
1055.3375000000003
1073.12265625
1098.3660937500001
1091.6432031250001
1105.3760937499999
1081.6140624999998
1066.0012499999998
1057.31046875
1041.17671875
1023.1944531249999
1000.3893749999996
1000.3745312499994
1010.4867187499993
1006.4469531249994
993.2382031249991
975.8724999999993
979.5708593749993
953.1714062499992
925.9269531249993
901.1774999999993
889.8409374999993
881.7148437499993
864.0053906249992
818.3746874999995
779.8336718749995
758.7307031249995
757.4204687499997
715.0047656249998
665.0923437499999
619.067890625
583.6555468749999
525.7134374999999
484.250546875
451.56234374999985
428.7909374999998
410.6700781249999
373.86734374999975
327.2390624999997
303.8995312499997
305.1774999999996
317.7340624999996
306.99031249999956
296.67999999999955
292.06312499999945
301.6353124999994
310.12570312499946
303.54796874999937
310.25976562499943
343.3283593749995
350.42789062499963
346.3453906249997
343.57796874999974
357.19820312499985
354.3707031249998
376.0158593749999
350.9748437499999
328.96835937500003
322.14914062500003
324.49898437500013
320.0772656250003
308.49296875000033
295.97414062500036
299.9571093750004
321.1777343750005
295.67312500000054
288.5980468750005
272.84867187500043
266.93195312500035
262.4279687500003
263.52515625000024
247.73851562500022
227.4482031250002
221.43171875000021
238.45992187500013
228.49859375000005
196.78929687499996
169.99101562499982
154.9931249999997
128.59710937499963
110.50023437499958
76.86304687499957
56.69507812499959
48.68507812499966
46.00531249999972
33.38406249999979
3.706953124999894
-10.017421874999993
2.2199218750000367
35.69492187500005
22.746328125000105
10.51640625000016
-8.523984374999774
-10.252734374999676
-2.958437499999612
7.5914843750004595
0.2853906250004992
-21.513124999999533
-32.09679687499959
-33.987499999999635
-57.876640624999624
-104.37328124999968
-128.4985156249997
-145.86749999999972
-200.3831249999998
-257.23437499999983
-322.04101562499983
-389.6117968749998
-429.88453124999984
-449.3772656249999
-470.02359374999986
-511.4194531249999
-556.9244531249998
-579.9657812499998
-583.3616406249997
-601.3213281249997
-621.2174999999997
-635.1840624999998
-625.3191406249998
-614.6934374999998
-599.5090624999999
-596.0596874999999
-592.088046875
-574.1800781249999
-544.6575
-558.125546875
-599.5113281250002
-634.0067968750002
-655.2971875000002
-685.6798437500003
-720.2256250000004
-770.5602343750004
-825.9862500000004
-860.3148437500004
-902.5896875000003
-989.4426562500005
-1077.7904687500004
-1146.8268750000004
-1201.3785937500006
-1269.2131250000004
-1340.7085937500005
-1388.2581250000005
-1401.0394531250008
-1430.6017968750004
-1446.3288281250004
-1444.9210937500004
-1440.6800781250004
-1425.1719531250003
-1404.1464062500004
-1395.518046875
-1372.969453125
-1320.457265625
-1233.4589062499997
-1156.5220312499998
-1066.8446874999995
-956.1221874999994
-826.3229687499994
-703.0135937499994
-580.9684374999991
-438.97992187499926
-267.5121093749992
-117.41656249999919
19.237421875000845
162.0068750000008
331.5524218750008
497.4689843750007
688.9228906250007
840.9184375000006
1000.0101562500006
1163.8477343750005
1316.7319531250002
1444.4254687500002
1559.9403125000001
1666.9103906250002
1772.300703125
1845.238203125
1887.2543750000002
1930.4075781249999
1980.3688281249997
2004.851484375
2030.603359375
2028.5205468749996
2008.6977343749998
1988.2650781249997
1968.5060156249997
1906.0584374999999
1835.7256249999996
1778.7132812499995
1725.1421874999999
1636.4611718750002
1545.6171093750002
1470.2794531250001
1418.2278125000003
1328.1139062500004
1240.6134375000001
1153.3188281250004
1057.9472656250005
970.3861718750003
885.3134375000003
786.7902343750005
694.4337500000005
623.8462500000006
572.2933593750006
498.70906250000064
433.83523437500065
382.8967187500006
348.1990625000006
309.0069531250006
254.28054687500054
205.0914843750005
177.61515625000052
138.59945312500054
102.94226562500049
76.22625000000043
64.30898437500043
36.02796875000042
29.954062500000344
-11.290781249999766
-47.140468749999876
-72.43968749999996
-105.8053125000001
-147.47000000000014
-194.5928125000002
-233.52171875000033
-266.99796875000044
-313.5184375000005
-366.87085937500063
-405.7430468750007
-420.2686718750008
-452.5126562500009
-481.27867187500095
-510.18750000000114
-531.3485937500011
-522.2552343750011
-519.5853125000011
-536.7576562500011
-545.2763281250011
-528.3576562500012
-500.53828125000115
-487.79937500000113
-472.5141406250011
-433.78929687500107
-364.28992187500114
-327.06117187500115
-271.38867187500114
-216.26218750000103
-162.32375000000093
-107.11203125000092
-53.18445312500082
-31.838671875000834
-0.7400000000008455
51.705234374999186
120.50656249999922
148.96726562499927
175.06929687499922
202.5255468749993
227.74101562499928
230.88906249999926
212.70562499999923
187.9800781249993
177.0960156249993
143.79953124999923
96.54226562499919
51.68585937499914
19.922656249999076
-27.867031250000966
-46.45421875000095
-94.85328125000093
-150.35265625000096
-188.61531250000095
-207.82257812500094
-232.36617187500084
-259.18460937500083
-259.55343750000065
-244.93164062500063
-210.07039062500047
-193.56648437500047
-171.02640625000035
-167.26640625000027
-149.9400000000002
-125.42320312500009
-86.18601562499998
-69.54898437499995
-69.79156249999994
-61.52562499999993
-42.817812499999874
-57.61703124999982
-94.4106249999998
-133.6276562499998
-178.95156249999982
-252.55156249999987
-322.268046875
-420.6015625
-506.23960937500004
-577.4238281250001
-627.9615625000001
-687.2152343750001
-784.1000781250002
-880.8610937500001
-949.2640625000001
-995.9902343749999
-1072.052421875
-1128.5525000000002
-1198.0781250000002
-1243.3944531250002
-1273.6393749999997
-1292.96578125
-1329.5970312499999
-1359.0967968749999
-1383.2959374999998
-1407.4604687499998
-1447.4170312499996
-1503.9194531249996
-1548.0439062499995
-1569.1367968749996
-1610.8374999999996
-1647.4395312499996
-1694.0389062499996
-1735.04359375
-1762.3196874999999
-1783.32265625
-1800.4397656249996
-1847.2586718750001
-1875.0880468749997
-1890.209375
-1889.6203125
-1887.1981250000001
-1849.88125
-1824.4662499999997
-1767.07
-1696.5003125000003
-1613.6457812500003
-1522.3150781250004
-1423.4635937500004
-1318.5209375000004
-1184.3942187500006
-1062.0939843750004
-940.5714843750004
-794.1332031250005
-616.2471093750006
-444.6717968750006
-257.1064062500006
-83.91539062500061
78.76593749999932
245.27945312499924
418.27328124999923
552.3796093749993
684.1457031249994
817.7282031249995
952.5845312499994
1048.2542968749997
1148.2878906249998
1241.340078125
1341.21359375
1415.58171875
1477.96125
1528.3928125000002
1559.3912500000004
1591.8721875000006
1621.6658593750008
1629.270703125001
1633.8396875000012
1641.5369531250012
1658.1325781250016
1627.3057812500015
1597.3580468750013
1578.7592968750016
1574.7343750000016
1548.6987500000016
1509.8359375000016
1477.2335156250015
1453.8324218750015
1409.5884375000014
1348.9782812500014
1293.4232031250012
1244.3971875000013
1182.619843750001
1146.444375000001
1072.7679687500008
1018.7498437500009
984.9708593750007
964.804453125001
938.760781250001
895.8907031250011
854.8820312500009
826.389687500001
788.8303906250009
740.3623437500008
693.3710937500009
680.0071875000009
655.5128125000009
643.7931250000009
609.1418750000008
562.041250000001
540.3004687500012
530.3694531250011
476.9487500000011
424.34742187500103
387.793750000001
363.8665625000009
321.69414062500084
290.66445312500065
277.39289062500063
282.01085937500056
265.2942187500004
258.4452343750003
249.15585937500023
228.07328125000006
220.76445312500002
235.51593749999986
242.79132812499972
240.49414062499957
255.03351562499944
280.6714843749994
273.70835937499936
266.9900781249994
278.35523437499944
297.63789062499944
293.35742187499955
274.67664062499955
259.2911718749996
260.4517968749996
244.45085937499954
217.40484374999954
194.6491406249995
179.81796874999952
141.56320312499943
119.4105468749994
65.0346874999994
26.368671874999393
16.257968749999353
13.703671874999257
-5.830000000000822
-52.894843750000966
-85.68859375000106
-115.3150000000011
-155.8758593750011
-213.54757812500108
-257.21882812500104
-281.60179687500096
-308.20906250000087
-324.03914062500075
-342.5897656250006
-361.6289843750004
-353.70757812500017
-345.32031250000006
-366.38992187499986
-397.0949999999997
-409.1311718749995
-415.1857812499993
-435.38539062499916
-456.9299999999989
-449.39804687499884
-417.67476562499854
-407.23562499999855
-394.04578124999836
-385.20382812499815
-389.2863281249981
-384.00484374999803
-381.75570312499786
-393.4958593749979
-408.66773437499796
-401.46984374999795
-384.6753124999979
-392.96140624999805
-394.42968749999807
-369.73671874999826
-327.0373437499984
-291.55296874999857
-285.9492968749987
-264.58187499999883
-228.079218749999
-196.12390624999924
-169.44945312499945
-138.6314062499996
-102.33999999999979
-88.64414062499996
-50.71281250000005
-41.19539062500012
-40.05343750000026
-19.707968750000315
5.756953124999682
20.39664062499973
6.927031249999817
2.2368749999999147
-6.694375000000012
3.390312500000017
-23.213046874999932
-47.8171874999999
-94.32874999999991
-122.83624999999996
-158.56218749999996
-173.8328125
-211.14351562500002
-246.31992187500003
-282.99101562500016
-299.9221093750002
-343.3688281250002
-390.24039062500026
-448.3534375000004
-492.1941406250006
-560.2085937500008
-609.280312500001
-687.5689062500011
-741.2307812500012
-783.7447656250013
-811.7867968750014
-852.5653906250013
-905.3567968750017
-962.3217187500015
-986.6134375000017
-999.9201562500017
-1024.7514062500018
-1038.3226562500017
-1063.1399218750016
-1062.0109375000018
-1029.5712500000016
-969.9275781250016
-921.2312500000014
-862.1437500000015
-786.7751562500013
-699.4380468750011
-600.9460156250009
-507.84273437500076
-388.0225000000005
-252.26562500000037
-116.71921875000018
27.882578125000013
172.25234375000014
318.16437500000023
485.9847656250003
659.8966406250003
822.0617187500004
942.5749218750004
1051.1105468750006
1172.2203906250006
1308.2391406250006
1418.0850000000007
1532.2776562500003
1599.6360937500003
1682.2956250000004
1747.0749218750004
1825.2468750000003
1853.234453125
1863.4576562500001
1865.2965625
1874.5396875000001
1856.3828906249998
1823.2956250000002
1782.514453125
1759.2468749999998
1706.3966406250004
1665.261953125
1599.4868750000003
1510.313984375
1434.3308593749998
1370.4635937500002
1290.998203125
1194.0215624999998
1090.05921875
1022.2803906249999
974.5385937499997
904.549140625
845.5346874999997
768.7557031249996
712.9365624999997
669.3674218749996
639.7853124999996
605.2731249999996
561.1130468749994
522.1946874999993
491.99078124999926
440.48046874999926
372.91234374999914
323.25695312499914
291.6585937499991
248.95812499999903
207.6427343749991
153.64234374999904
89.41601562499906
40.76859374999906
-2.635859375000929
-74.5182031250009
-144.0249218750009
-203.93679687500094
-253.97648437500098
-317.3647656250009
-365.3778125000009
-380.35601562500074
-361.0531250000007
-361.2238281250007
-345.4029687500006
-332.5217968750006
-338.3668750000007
-327.78843750000067
-315.58945312500055
-315.2774218750006
-304.61343750000054
-276.5891406250006
-230.79703125000063
-218.9741406250006
-208.04476562500054
-188.95882812500048
-144.70992187500045
-129.84976562500052
-140.80828125000056
-141.87359375000062
-133.3893750000006
-140.1500000000006
-154.71507812500053
-164.71789062500045
-161.37171875000044
-153.0662500000004
-123.31632812500037
-132.31718750000033
-130.25140625000026
-117.54867187500018
-96.98984375000013
-81.41914062500005
-82.97374999999997
-82.6461718749999
-66.30742187499973
-76.61148437499959
-117.39124999999942
-150.59304687499932
-169.87171874999922
-189.69679687499917
-199.88695312499908
-236.16187499999904
-288.2803906249989
-322.28124999999886
-354.77046874999877
-425.75914062499874
-493.41968749999864
-549.9151562499986
-601.3413281249985
-677.2932812499985
-753.0642187499984
-799.4940624999984
-820.8751562499986
-853.1376562499986
-876.0691406249986
-894.5713281249984
-927.1193749999987
-947.4753906249989
-965.6874999999987
-990.7391406249989
-1023.2032031249989
-1030.6401562499993
-1009.3787499999993
-1011.8545312499994
-1010.9189843749995
-995.5627343749995
-961.2267187499997
-956.7365624999999
-960.64109375
-946.3690625
-917.436953125
-918.6242187500002
-939.7385937500001
-958.2296875000003
-961.593515625
-971.2774218750003
-969.983515625
-985.1819531250001
-1007.098515625
-1028.464375
-1051.6734375
-1088.6093749999998
-1123.499296875
-1150.1132812499998
-1156.3724999999997
-1182.6970312499998
-1238.7790624999998
-1277.9274999999998
-1282.7531249999997
-1288.9553125
-1282.0440624999999
-1296.295703125
-1319.5987499999999
-1319.0296875
-1327.00734375
-1351.2346093750002
-1362.4953906250005
-1363.000078125
-1362.2837500000003
-1383.5061718750003
-1418.8003125000002
-1442.7096093750001
-1452.7469531250001
-1480.811015625
-1506.9352343750002
-1531.3547656249998
-1565.16296875
-1573.1925781249997
-1581.4786718749997
-1596.5473437499998
-1612.5645312499998
-1596.9030468749997
-1565.410703125
-1558.1580468749999
-1550.555859375
-1524.3407031250001
-1468.9054687500002
-1419.7189062500006
-1381.1627343750004
-1333.8750000000007
-1248.273437500001
-1164.949062500001
-1083.269843750001
-995.4897656250012
-893.1050000000012
-796.5075781250015
-666.3700781250017
-548.5947656250017
-434.7057031250017
-298.8596093750018
-139.28484375000178
23.85906249999829
160.89429687499836
307.3743749999984
472.77273437499855
674.1814062499988
849.7548437499988
1026.761328124999
1172.3769531249993
1331.3299218749994
1481.8747656249998
1633.7295312499996
1756.8481249999998
1880.4516406249998
1992.72546875
2119.59765625
2203.424375
2267.1085156250006
2332.0737500000005
2400.8764843750005
2440.7378125000005
2476.0541406250004
2472.6235937500005
2479.371484375001
2486.2736718750007
2507.265859375
2507.787109375001
2491.267968750001
2472.0982812500006
2471.831484375001
2460.1462500000002
2421.2524218750004
2373.4552343750006
2317.3207812500004
2257.522031250001
2198.9698437500006
2160.9960937500005
2109.3817968750004
2040.0457812500008
1972.3338281250008
1901.7250000000008
1827.7905468750007
1732.4156250000008
1643.2868750000007
1560.0228906250006
1445.6737500000008
1328.2254687500008
1226.3609375000008
1118.2242187500008
1044.4632031250007
989.2113281250007
947.6654687500007
873.7379687500004
801.4541406250004
743.9920312500003
716.2137500000002
679.6507031250001
665.2642968750001
618.6839843750001
605.269765625
592.5450781250003
621.2659375000003
618.9002343750001
631.1617187500001
623.5329687500001
650.0078124999999
635.9508593749998
604.3218749999996
575.8105468749995
568.9368749999995
546.9493749999996
541.7807031249995
509.1835156249995
452.75093749999957
414.06335937499944
392.69890624999937
359.2338281249993
307.27765624999927
250.11249999999924
221.6184374999993
209.9736718749993
192.22796874999938
185.63289062499945
171.5920312499995
170.85718749999964
174.0976562499997
177.07773437499975
151.51906249999976
124.6217968749997
116.65999999999971
125.26007812499964
110.93015624999958
73.42429687499956
52.78960937499948
47.15789062499941
32.25359374999934
17.531953124999312
-9.762265625000785
-53.69187500000088
-79.91710937500098
-95.65804687500105
-133.4086718750011
-173.3606250000011
-191.14156250000116
-195.46804687500114
-220.03890625000105
-239.14523437500094
-238.21687500000078
-215.04687500000063
-197.40007812500048
-174.9517187500003
-151.81804687500016
-143.22859375
-128.26773437499983
-114.29539062499967
-123.42570312499947
-133.84218749999934
-139.87335937499924
-137.3917968749991
-174.03578124999902
-203.3124218749989
-220.33703124999886
-220.6664843749989
-251.771718749999
-307.620781249999
-369.1384374999991
-426.9680468749992
-505.26867187499926
-589.2733593749992
-672.7730468749994
-747.8209374999996
-799.2062499999997
-837.502265625
-902.0710156249997
-947.5886718749999
-968.801953125
-980.3382812500003
-1005.9143750000002
-1034.1784375000002
-1052.3182812500002
-1055.034296875
-1062.3757812500003
-1079.7782812500002
-1076.5496093750003
-1048.4394531250002
-1041.4589843750002
-1017.8025781250003
-1019.5759375000001
-1046.148984375
-1048.8175781250002
-1052.3907031250003
-1093.7735937500001
-1138.862890625
-1167.89265625
-1195.5030468750003
-1261.5425000000002
-1323.3680468750001
-1367.2083593750003
-1386.558203125
-1429.3947656250002
-1466.201484375
-1491.7782031250001
-1522.8440625
-1540.702421875
-1542.4587499999998
-1550.276015625
-1551.99625
-1527.7640625
-1476.6540624999998
-1460.1666406249997
-1442.4511718749995
-1408.4276562499997
-1357.3707812499997
-1321.8527343749993
-1304.4739062499993
-1290.0505468749993
-1255.0478124999995
-1258.4342187499994
-1284.9610156249992
-1303.6702343749994
-1306.5063281249995
-1329.5348437499995
-1337.6452343749995
-1393.2662499999994
-1437.3699218749991
-1466.3440624999992
-1486.1436718749992
-1505.1265624999992
-1517.0889843749992
-1510.733124999999
-1482.002109374999
-1459.0833593749987
-1439.1753906249987
-1395.9640624999988
-1304.1717968749988
-1192.369296874999
-1073.0898437499989
-954.2787499999985
-822.7517187499988
-655.7230468749988
-470.9546874999988
-315.4740624999988
-156.70437499999875
11.080156250001227
185.49882812500115
334.20804687500123
484.9426562500013
641.5553906250013
815.1185156250012
957.9796093750012
1109.3085156250013
1231.0703125000011
1326.2755468750013
1424.6672656250012
1511.402031250001
1577.8297656250013
1635.8554687500011
1698.089687500001
1758.8258593750008
1781.3432812500012
1805.7303125000003
1836.9873437500005
1880.5702343750004
1895.1551562500001
1887.8908593750002
1875.4816406250004
1867.3413281250007
1840.695234375
1807.5834375
1761.6667187500002
1728.7400781250003
1669.7110156249998
1625.2301562499997
1544.9722656249999
1470.9241406249998
1420.5992968750002
1402.4175
1371.0620312500002
1313.0950000000003
1237.2269531250001
1180.7907812500002
1130.127421875
1079.878125
1023.0668750000001
964.9771875000001
925.899453125
900.55625
892.2184375
858.4132031250002
837.6332812500001
826.1489843750003
825.7700781250003
793.0356250000001
729.412890625
672.4344531250001
635.397890625
584.13015625
552.525703125
506.55898437499997
469.23078124999995
443.7287499999998
434.7438281249997
406.94195312499966
361.67617187499957
320.1980468749994
300.55187499999937
289.39914062499923
252.9050781249991
240.95445312499902
211.41046874999893
199.88718749999893
188.89218749999893
204.87515624999895
194.93554687499903
194.39210937499905
182.30257812499912
192.0935937499992
188.35414062499927
173.7367187499993
172.71234374999935
178.03718749999945
165.53054687499952
165.05843749999966
156.26406249999977
136.97015624999983
115.46703125000002
121.56171875000013
121.01375000000016
103.45687500000018
84.07976562500014
79.52382812500008
89.37984375000002
85.22242187499995
90.13601562499984
68.68335937499978
64.79820312499966
65.09179687499959
68.6644531249995
55.00109374999946
44.150859374999314
33.392734374999236
37.58078124999915
16.03679687499899
-22.541406250001106
-36.04359375000119
-22.52507812500126
-13.230703125001305
3.8635156249986946
1.4036718749987274
-19.568671875001282
-22.6187500000012
-22.28734375000114
-42.79187500000099
-61.897890625000876
-75.69820312500077
-74.9807812500007
-94.73468750000053
-109.03632812500044
-95.65265625000038
-48.85343750000033
-29.56687500000022
-2.299296875000172
-8.189687500000066
-54.76429687499997
-91.71867187499988
-115.40328124999981
-155.41124999999977
-192.6894531249997
-222.92312499999971
-249.40968749999976
-290.89593749999983
-330.0264062499998
-362.6467968749999
-376.2417968749999
-428.16914062499995
-499.4101562499999
-576.5463281249998
-643.1567968749998
-724.9299999999998
-797.6443749999997
-853.8555468749997
-899.8271874999997
-933.9070312499997
-942.2264062499999
-978.7300781249999
-1002.0471874999998
-1013.0396874999999
-1014.3224999999998
-1044.2803906249997
-1076.8158593749997
-1114.2197656249998
-1121.431171875
-1141.7185937499999
-1175.7624218750002
-1195.3705468750004
-1191.0758593750004
-1187.1704687500003
-1158.9762500000006
-1161.0906250000005
-1193.4675000000007
-1222.9110156250008
-1241.742187500001
-1286.442187500001
-1337.612187500001
-1372.383203125001
-1397.417578125001
-1437.637265625001
-1477.182968750001
-1497.7763281250009
-1493.9642968750009
-1510.7353906250005
-1510.7414062500004
-1523.5478125000004
-1565.3664843750003
-1601.236171875
-1623.323671875
-1634.657265625
-1626.5008593750001
-1596.900390625
-1537.4969531250001
-1507.872265625
-1459.746171875
-1384.6854687500002
-1289.018125
-1201.794921875
-1122.4460156250002
-1030.2586718750003
-912.4564843750003
-804.9771875000005
-692.5735937500006
-557.4378906250006
-388.4053125000006
-225.86757812500068
-40.254375000000664
109.0763281249994
258.70468749999947
414.55687499999965
593.2138281249996
740.9865624999998
876.07078125
1013.0675
1161.0879687499996
1277.060703125
1371.2865625
1459.6113281249995
1554.0671874999996
1632.1783593749994
1711.8846874999995
1754.4938281249995
1777.7710937499994
1808.7321093749995
1833.0735156249996
1838.1135156249993
1824.3815624999988
1820.0859374999989
1831.8103124999989
1810.4824999999992
1779.5086718749992
1760.6196093749993
1768.9341406249994
1758.6773437499992
1755.115546875
1740.0432031250002
1709.7710937500003
1687.6024218750003
1673.8128125000007
1622.5021093750008
1568.4110156250013
1528.5628906250013
1498.9067968750016
1433.9375000000014
1364.6656250000017
1297.0860937500017
1241.7922656250018
1165.0726562500017
1079.4400000000019
969.0781250000017
872.3991406250018
774.1147656250016
683.1922656250015
581.3270312500014
486.3675781250014
379.1889062500012
319.1588281250011
235.14804687500092
158.98117187500077
95.18476562500062
69.0658593750004
30.95445312500025
-13.551874999999836
-46.026484374999974
-54.219609375000054
-33.134531250000116
-8.33046875000023
32.97624999999969
56.979609374999676
96.25679687499962
151.25539062499948
228.1883593749994
281.1053906249994
328.65359374999946
380.92179687499936
440.1282031249994
479.8871874999995
501.49210937499964
519.9512499999997
551.7116406249997
555.451640625
570.73734375
557.81375
537.5621875
509.78617187500015
505.1071093750001
481.1844531250001
443.8660937500002
398.0470312500002
377.9800781250002
377.1250000000002
356.3850000000002
347.9700000000003
319.70523437500015
311.8783593750001
309.67203125000003
322.3896875
314.2649218749999
300.4701562499999
283.01257812499983
295.47937499999983
296.81757812499984
289.2941406249999
295.9269531249999
310.44226562499995
318.8759375000001
327.66546875000006
322.94968750000015
300.03390625000026
300.7071875000002
313.4489843750003
309.2795312500004
313.1339843750004
309.5158593750005
322.87054687500046
349.82781250000056
361.1383593750005
366.4192968750006
342.2275000000007
324.6165625000007
301.8750781250007
280.5671875000007
225.83875000000072
178.64109375000064
139.06437500000052
106.55421875000046
48.76070312500036
-14.903281249999731
-78.8147656249998
-142.56718749999985
-202.73734374999987
-256.00499999999994
-324.96296875000013
-407.7664843750002
-459.8742187500003
-497.2486718750004
-555.7114843750004
-612.6697656250004
-655.5864062500004
-679.8403906250005
-728.7752343750004
-776.5400781250004
-807.9435156250005
-818.4685156250004
-850.604765625
-860.1973437500002
-892.07921875
-957.3124218749999
-1009.7237499999999
-1044.9721874999996
-1083.1182812499994
-1122.7162499999993
-1152.6789062499993
-1169.9399999999996
-1213.4757812499995
-1247.2666406249996
-1268.5670312499994
-1276.5134374999996
-1288.8888281249995
-1311.3932031249997
-1329.3601562499998
-1337.9932812499999
-1348.46890625
-1342.54171875
-1330.60703125
-1303.4152343750004
-1296.1150000000002
-1268.4403125000003
-1269.3536718750006
-1259.3061718750005
-1239.4953125000004
-1208.1092968750004
-1212.9277343750005
-1214.1214843750006
-1222.9316406250005
-1224.1652343750002
-1245.8978906250004
-1281.1579687500005
-1304.4901562500002
-1328.55453125
-1362.8583593750002
-1387.9448437499998
-1430.4963281249998
-1479.7198437499997
-1516.5780468749992
-1539.1672656249993
-1586.597265624999
-1618.745312499999
-1623.927734374999
-1603.793124999999
-1595.5845312499987
-1571.0426562499986
-1520.0432031249984
-1437.3248437499985
-1370.5564062499984
-1277.1005468749986
-1176.7342187499987
-1077.7382812499986
-947.9017968749989
-801.9467187499989
-659.8573437499991
-505.9623437499992
-341.23015624999937
-163.10070312499957
-21.12476562499977
127.02179687499999
284.72476562499986
448.09874999999965
576.9904687499995
695.3584374999994
813.9821874999993
935.3284374999993
1037.8767187499993
1133.1151562499992
1215.5095312499989
1300.049687499999
1369.5120312499987
1446.0279687499985
1490.2374999999986
1536.0111718749986
1589.1728124999988
1652.3880468749987
1659.5164062499987
1662.7596093749983
1662.7816406249988
1667.3012499999984
1651.6797656249985
1623.1696093749986
1595.2282031249983
1586.4201562499984
1567.6505468749986
1560.0539843749987
1529.0428124999985
1483.4000781249988
1446.990078124999
1402.0263281249993
1334.0052343749994
1251.0249999999994
1189.5919531249997
1144.1546875
1088.87921875
1034.8032031250002
1002.8578906250004
993.4593750000007
961.0599218750009
936.4029687500009
900.4246093750012
840.5066406250011
791.7685937500014
752.4334375000014
704.8932031250016
662.8771875000016
640.8051562500016
630.5623437500017
600.0613281250015
566.2119531250015
536.3899218750015
524.4690625000014
483.8883593750013
439.15921875000123
386.50453125000104
351.343281250001
307.46515625000086
258.5386718750008
211.64625000000066
169.59070312500052
119.57117187500039
88.8488281250003
37.00367187500018
-12.04210937499991
-47.431171875
-62.94046875000002
-79.35226562500004
-103.589296875
-127.19898437500001
-135.43328125
-123.08492187499999
-131.28890624999997
-129.32804687499987
-137.24226562499982
-119.2665624999997
-91.70828124999964
-40.408281249999625
-17.764374999999568
14.361171875000467
45.004296875000485
90.23429687500048
118.40398437500053
137.7278125000005
141.85281250000043
165.26914062500035
172.02296875000027
184.4804687500002
180.214609375
181.3999218749999
180.89062499999974
198.80132812499954
185.57640624999942
166.89789062499932
134.79156249999917
120.61906249999907
110.090078124999
85.28249999999896
61.28828124999887
